 Al5Lu3O12 Density=2.699, Angle=90.deg
 Photon Energy (eV), Atten Length (microns)
   30.0000  3.205755E-02
   30.5226  2.916317E-02
   31.0543  2.751770E-02
   31.5952  2.662433E-02
   32.1456  2.628345E-02
   32.7055  2.624699E-02
   33.2752  2.629435E-02
   33.8549  2.643770E-02
   34.4446  2.658080E-02
   35.0446  2.664850E-02
   35.6551  2.673991E-02
   36.2762  2.702960E-02
   36.9081  2.758502E-02
   37.5510  2.816841E-02
   38.2051  2.886136E-02
   38.8706  2.978281E-02
   39.5477  3.068148E-02
   40.2366  3.151294E-02
   40.9375  3.235978E-02
   41.6506  3.322895E-02
   42.3761  3.411818E-02
   43.1143  3.503421E-02
   43.8653  3.603211E-02
   44.6294  3.708632E-02
   45.4068  3.815624E-02
   46.1978  3.920321E-02
   47.0025  4.024332E-02
   47.8213  4.126446E-02
   48.6543  4.224488E-02
   49.5018  4.331911E-02
   50.3641  4.452005E-02
   51.2414  4.585482E-02
   52.1340  4.725297E-02
   53.0422  4.869376E-02
   53.9661  5.012868E-02
   54.9062  5.156191E-02
   55.8626  5.303570E-02
   56.8357  5.455119E-02
   57.8257  5.610919E-02
   58.8330  5.771130E-02
   59.8579  5.934555E-02
   60.9006  6.099766E-02
   61.9614  6.268393E-02
   63.0407  6.441580E-02
   64.1389  6.622574E-02
   65.2561  6.809141E-02
   66.3928  7.000623E-02
   67.5494  7.171730E-02
   68.7260  7.343014E-02
   69.9232  7.517555E-02
   71.1412  7.694741E-02
   72.3804  7.877340E-02
   73.6413  6.655893E-02
   74.9240  6.731515E-02
   76.2292  6.802838E-02
   77.5570  6.876434E-02
   78.9080  6.954491E-02
   80.2826  7.029486E-02
   81.6810  7.104196E-02
   83.1039  7.174873E-02
   84.5515  7.205338E-02
   86.0243  7.203671E-02
   87.5228  7.231186E-02
   89.0474  7.298447E-02
   90.5985  7.375073E-02
   92.1767  7.450407E-02
   93.7824  7.526126E-02
   95.4160  7.607755E-02
   97.0781  7.692608E-02
   98.7691  7.779812E-02
   100.490  7.874950E-02
   102.240  7.960944E-02
   104.021  8.045350E-02
   105.833  8.135320E-02
   107.677  8.222353E-02
   109.552  8.295389E-02
   111.461  8.363626E-02
   113.402  8.429553E-02
   115.378  8.491766E-02
   117.387  8.548361E-02
   119.432  8.601262E-02
   121.513  8.651691E-02
   123.629  8.699612E-02
   125.783  8.796303E-02
   127.974  8.923269E-02
   130.203  9.053309E-02
   132.471  9.183387E-02
   134.779  9.313191E-02
   137.126  9.440910E-02
   139.515  9.568779E-02
   141.945  9.696635E-02
   144.418  9.824412E-02
   146.934  9.959313E-02
   149.493  0.101057
   152.097  0.102668
   154.747  0.104373
   157.442  0.106094
   160.185  0.107866
   162.975  0.109691
   165.814  0.111538
   168.702  0.113402
   171.641  0.115285
   174.631  0.117178
   177.673  0.119147
   180.768  0.121593
   183.917  0.124595
   187.120  0.127732
   190.380  0.130877
   193.696  0.133828
   197.070  0.136607
   200.503  0.139284
   203.996  0.141951
   207.549  0.144598
   211.165  0.147311
   214.843  0.151003
   218.585  0.154989
   222.393  0.159170
   226.267  0.163290
   230.208  0.167348
   234.219  0.171483
   238.298  0.175682
   242.449  0.179892
   246.673  0.184149
   250.970  0.188488
   255.341  0.192911
   259.789  0.197413
   264.315  0.202008
   268.919  0.206878
   273.603  0.212238
   278.369  0.217523
   283.218  0.222704
   288.152  0.227865
   293.171  0.233080
   298.278  0.238356
   303.474  0.243694
   308.760  0.249101
   314.139  0.254566
   319.611  0.260089
   325.178  0.265673
   330.842  0.271317
   336.606  0.277019
   342.469  0.282779
   348.435  0.288605
   354.504  0.294487
   360.679  0.300334
   366.962  0.306087
   373.354  0.311863
   379.858  0.317698
   386.475  0.323724
   393.207  0.330192
   400.056  0.337978
   407.025  0.346621
   414.115  0.355494
   421.329  0.364575
   428.668  0.373866
   436.135  0.383416
   443.732  0.393279
   451.462  0.402989
   459.326  0.412167
   467.327  0.421043
   475.468  0.429911
   483.750  0.438921
   492.177  0.448079
   500.750  0.457376
   509.473  0.466872
   518.348  0.476858
   527.377  0.488156
   536.564  0.501526
   545.910  0.316953
   555.420  0.327900
   565.095  0.339310
   574.938  0.351115
   584.953  0.363283
   595.143  0.375838
   605.510  0.388803
   616.057  0.402192
   626.789  0.416045
   637.707  0.430728
   648.815  0.446574
   660.117  0.463394
   671.616  0.480604
   683.315  0.497281
   695.218  0.513796
   707.329  0.531193
   719.650  0.550256
   732.186  0.570418
   744.940  0.591295
   757.916  0.612925
   771.119  0.635437
   784.551  0.659210
   798.217  0.684326
   812.122  0.710420
   826.269  0.737484
   840.662  0.765517
   855.305  0.794396
   870.204  0.824134
   885.363  0.854845
   900.785  0.886684
   916.476  0.919689
   932.441  0.954475
   948.683  0.991090
   965.209  1.02932
   982.022  1.06905
   999.128  1.11037
   1016.53  1.15341
   1034.24  1.19912
   1052.26  1.24705
   1070.59  1.29723
   1089.23  1.34941
   1108.21  1.40367
   1127.51  1.46012
   1147.15  1.51883
   1167.14  1.57987
   1187.47  1.64335
   1208.15  1.70939
   1229.20  1.77806
   1250.61  1.84954
   1272.39  1.92391
   1294.56  2.00134
   1317.11  2.08185
   1340.05  2.16560
   1363.39  2.25272
   1387.14  2.34327
   1411.31  2.43745
   1435.89  2.53542
   1460.90  2.63763
   1486.35  2.74472
   1512.24  2.85906
   1538.58  2.97950
   1565.39  2.06703
   1592.65  1.05729
   1620.40  1.08522
   1648.62  0.936383
   1677.34  0.875212
   1706.56  0.913682
   1736.29  0.953914
   1766.53  0.996045
   1797.30  1.04009
   1828.61  1.08610
   1860.46  1.13415
   1892.87  1.18432
   1925.84  1.23669
   1959.39  1.29136
   1993.52  1.34844
   2028.25  1.38497
   2063.58  1.44638
   2099.53  1.51055
   2136.10  1.57758
   2173.31  1.64761
   2211.17  1.72075
   2249.68  1.79718
   2288.87  1.57325
   2328.74  1.64221
   2369.31  1.71419
   2410.58  1.78932
   2452.57  1.86768
   2495.29  1.94483
   2538.76  1.96325
   2582.98  2.04593
   2627.97  2.13234
   2673.75  2.22268
   2720.33  2.31713
   2767.71  2.41584
   2815.93  2.51899
   2864.98  2.62678
   2914.88  2.73949
   2965.66  2.85731
   3017.32  2.98045
   3069.88  3.10911
   3123.35  3.24361
   3177.76  3.38432
   3233.12  3.53134
   3289.43  3.68519
   3346.73  3.84587
   3405.03  4.01384
   3464.35  4.18953
   3524.69  4.37328
   3586.09  4.56530
   3648.56  4.76616
   3712.11  4.97606
   3776.78  5.19581
   3842.56  5.42541
   3909.50  5.66561
   3977.60  5.91679
   4046.89  6.17952
   4117.38  6.45428
   4189.10  6.74162
   4262.08  7.04212
   4336.32  7.35636
   4411.85  7.68509
   4488.71  8.02888
   4566.90  8.38851
   4646.45  8.76458
   4727.39  9.15794
   4809.74  9.56945
   4893.52  9.99981
   4978.76  10.4501
   5065.49  10.9210
   5153.72  11.4136
   5243.50  11.9290
   5334.84  12.4682
   5427.77  13.0322
   5522.32  13.6223
   5618.51  14.2396
   5716.38  14.8855
   5815.96  15.5612
   5917.27  16.2682
   6020.34  17.0081
   6125.21  17.7824
   6231.91  18.5926
   6340.47  19.4402
   6450.91  20.3279
   6563.28  21.2564
   6677.61  22.2284
   6793.93  23.2457
   6912.28  24.3105
   7032.69  25.4250
   7155.19  26.5918
   7279.83  27.8129
   7406.64  29.0924
   7535.66  30.4312
   7666.92  31.8331
   7800.48  33.3015
   7936.36  34.8399
   8074.60  36.4504
   8215.26  38.1371
   8358.36  39.9039
   8503.96  41.7549
   8652.09  43.6952
   8802.81  45.7277
   8956.15  47.8580
   9112.16  50.0903
   9270.88  20.4400
   9432.38  21.4761
   9596.68  22.5643
   9763.85  23.7069
   9933.93  24.9079
   10107.0  26.1700
   10283.0  27.4958
   10462.2  20.7711
   10644.4  21.8315
   10829.8  22.9461
   11018.5  21.3736
   11210.4  22.2764
   11405.7  23.2233
   11604.4  24.2163
   11806.5  25.2576
   12012.2  26.3497
   12221.4  27.4947
   12434.3  28.6965
   12650.9  29.9561
   12871.3  31.2771
   13095.5  32.6624
   13323.6  34.1156
   13555.7  35.6393
   13791.8  37.2372
   14032.1  38.9131
   14276.5  40.6707
   14525.2  42.5142
   14778.2  44.4472
   15035.6  46.4749
   15297.5  48.6018
   15564.0  50.8331
   15835.1  53.1734
   16111.0  55.6279
   16391.6  58.2022
   16677.1  60.9027
   16967.6  63.7355
   17263.2  66.7070
   17563.9  69.8235
   17869.9  73.0929
   18181.1  76.5224
   18497.8  80.1197
   18820.1  83.8936
   19147.9  87.8524
   19481.4  92.0057
   19820.8  96.3618
   20166.1  100.933
   20517.3  105.727
   20874.7  110.757
   21238.4  116.033
   21608.3  121.567
   21984.7  127.372
   22367.7  133.463
   22757.3  139.851
   23153.7  146.551
   23557.1  153.580
   23967.4  160.952
   24384.9  168.685
   24809.7  176.796
   25241.9  185.303
   25681.5  194.226
   26128.9  203.584
   26584.1  213.398
   27047.1  223.690
   27518.3  234.482
   27997.6  245.799
   28485.3  257.666
   28981.5  270.109
   29486.4  283.155
   30000.0  296.832
