 CdTe Density=8.65, Angle=90.deg
 Photon Energy (eV), Atten Length (microns)
   30.0000  2.777206E-02
   30.5226  2.757229E-02
   31.0543  2.737605E-02
   31.5952  2.725464E-02
   32.1456  2.722855E-02
   32.7055  2.720666E-02
   33.2752  2.711813E-02
   33.8549  2.701771E-02
   34.4446  2.691348E-02
   35.0446  2.679253E-02
   35.6551  2.666936E-02
   36.2762  2.656576E-02
   36.9081  2.651439E-02
   37.5510  2.646637E-02
   38.2051  2.641765E-02
   38.8706  2.636626E-02
   39.5477  2.631296E-02
   40.2366  2.624976E-02
   40.9375  2.617090E-02
   41.6506  2.572100E-02
   42.3761  2.348735E-02
   43.1143  2.056755E-02
   43.8653  2.115594E-02
   44.6294  2.184620E-02
   45.4068  2.238787E-02
   46.1978  2.266214E-02
   47.0025  2.241700E-02
   47.8213  2.187467E-02
   48.6543  2.142920E-02
   49.5018  2.101976E-02
   50.3641  2.059705E-02
   51.2414  2.015336E-02
   52.1340  1.963899E-02
   53.0422  1.906641E-02
   53.9661  1.870663E-02
   54.9062  1.834623E-02
   55.8626  1.798978E-02
   56.8357  1.762637E-02
   57.8257  1.723159E-02
   58.8330  1.678201E-02
   59.8579  1.631592E-02
   60.9006  1.593415E-02
   61.9614  1.564134E-02
   63.0407  1.533812E-02
   64.1389  1.504265E-02
   65.2561  1.476581E-02
   66.3928  1.448323E-02
   67.5494  1.430890E-02
   68.7260  1.415013E-02
   69.9232  1.398742E-02
   71.1412  1.382671E-02
   72.3804  1.367507E-02
   73.6413  1.355800E-02
   74.9240  1.346315E-02
   76.2292  1.335531E-02
   77.5570  1.322927E-02
   78.9080  1.311356E-02
   80.2826  1.304485E-02
   81.6810  1.298584E-02
   83.1039  1.292890E-02
   84.5515  1.288110E-02
   86.0243  1.284579E-02
   87.5228  1.293205E-02
   89.0474  1.305369E-02
   90.5985  1.317424E-02
   92.1767  1.329367E-02
   93.7824  1.350011E-02
   95.4160  1.383813E-02
   97.0781  1.420836E-02
   98.7691  1.458642E-02
   100.490  1.512793E-02
   102.240  1.599532E-02
   104.021  1.696382E-02
   105.833  1.830599E-02
   107.677  2.027546E-02
   109.552  2.245573E-02
   111.461  2.486838E-02
   113.402  2.760249E-02
   115.378  3.122120E-02
   117.387  3.633669E-02
   119.432  4.262255E-02
   121.513  4.997104E-02
   123.629  5.851314E-02
   125.783  6.780634E-02
   127.974  7.756995E-02
   130.203  8.842655E-02
   132.471  0.100640
   134.779  0.114360
   137.126  0.130258
   139.515  0.151184
   141.945  0.174612
   144.418  0.196357
   146.934  0.216166
   149.493  0.233148
   152.097  0.242668
   154.747  0.248938
   157.442  0.253639
   160.185  0.257345
   162.975  0.257432
   165.814  0.252698
   168.702  0.247507
   171.641  0.241674
   174.631  0.234455
   177.673  0.227502
   180.768  0.221989
   183.917  0.216460
   187.120  0.210984
   190.380  0.205635
   193.696  0.200412
   197.070  0.195310
   200.503  0.190966
   203.996  0.186905
   207.549  0.183608
   211.165  0.180419
   214.843  0.177277
   218.585  0.174317
   222.393  0.172021
   226.267  0.170134
   230.208  0.168266
   234.219  0.166820
   238.298  0.165868
   242.449  0.164991
   246.673  0.164409
   250.970  0.164247
   255.341  0.164161
   259.789  0.164072
   264.315  0.164000
   268.919  0.164245
   273.603  0.165270
   278.369  0.167031
   283.218  0.168806
   288.152  0.170596
   293.171  0.172400
   298.278  0.174219
   303.474  0.176052
   308.760  0.177902
   314.139  0.179931
   319.611  0.182020
   325.178  0.184129
   330.842  0.187292
   336.606  0.190620
   342.469  0.193992
   348.435  0.197349
   354.504  0.200729
   360.679  0.204165
   366.962  0.207661
   373.354  0.211115
   379.858  0.213685
   386.475  0.217284
   393.207  0.221504
   400.056  0.225742
   407.025  0.235752
   414.115  0.224365
   421.329  0.211524
   428.668  0.197360
   436.135  0.181993
   443.732  0.166397
   451.462  0.150946
   459.326  0.135987
   467.327  0.121689
   475.468  0.108797
   483.750  0.100768
   492.177  9.849516E-02
   500.750  9.947941E-02
   509.473  0.100863
   518.348  0.102351
   527.377  0.105200
   536.564  0.107871
   545.910  0.110364
   555.420  0.112309
   565.095  0.112339
   574.938  5.763494E-02
   584.953  5.962931E-02
   595.143  6.167562E-02
   605.510  6.377434E-02
   616.057  6.595723E-02
   626.789  6.823813E-02
   637.707  7.036305E-02
   648.815  7.213955E-02
   660.117  7.394907E-02
   671.616  7.579981E-02
   683.315  7.771095E-02
   695.218  7.982457E-02
   707.329  8.221351E-02
   719.650  8.468269E-02
   732.186  8.721907E-02
   744.940  8.982416E-02
   757.916  9.251342E-02
   771.119  9.510773E-02
   784.551  9.771690E-02
   798.217  0.100388
   812.122  0.101374
   826.269  0.102625
   840.662  0.104130
   855.305  0.106366
   870.204  0.109821
   885.363  0.113371
   900.785  0.117076
   916.476  0.120975
   932.441  0.125064
   948.683  0.129322
   965.209  0.133342
   982.022  0.137256
   999.128  0.141367
   1016.53  0.145859
   1034.24  0.151659
   1052.26  0.157741
   1070.59  0.164104
   1089.23  0.170726
   1108.21  0.177613
   1127.51  0.184779
   1147.15  0.192233
   1167.14  0.199988
   1187.47  0.208056
   1208.15  0.216449
   1229.20  0.225182
   1250.61  0.234260
   1272.39  0.243691
   1294.56  0.253494
   1317.11  0.263693
   1340.05  0.274302
   1363.39  0.285337
   1387.14  0.296815
   1411.31  0.308754
   1435.89  0.321174
   1460.90  0.334095
   1486.35  0.347543
   1512.24  0.361547
   1538.58  0.376122
   1565.39  0.391281
   1592.65  0.407051
   1620.40  0.423459
   1648.62  0.440533
   1677.34  0.458288
   1706.56  0.476760
   1736.29  0.496191
   1766.53  0.516876
   1797.30  0.538630
   1828.61  0.561391
   1860.46  0.585116
   1892.87  0.609839
   1925.84  0.635602
   1959.39  0.662448
   1993.52  0.690426
   2028.25  0.719183
   2063.58  0.750269
   2099.53  0.782852
   2136.10  0.817003
   2173.31  0.852804
   2211.17  0.890370
   2249.68  0.929782
   2288.87  0.971144
   2328.74  1.01455
   2369.31  1.06010
   2410.58  1.10799
   2452.57  1.15823
   2495.29  1.21108
   2538.76  1.26661
   2582.98  1.32503
   2627.97  1.38645
   2673.75  1.45108
   2720.33  1.51913
   2767.71  1.59077
   2815.93  1.66623
   2864.98  1.74575
   2914.88  1.82962
   2965.66  1.91805
   3017.32  2.01135
   3069.88  2.10985
   3123.35  2.21395
   3177.76  2.32398
   3233.12  2.44031
   3289.43  2.56343
   3346.73  2.69383
   3405.03  2.83193
   3464.35  2.97829
   3524.69  3.13284
   3586.09  1.54659
   3648.56  1.61510
   3712.11  1.68664
   3776.78  1.39531
   3842.56  1.45928
   3909.50  1.52624
   3977.60  1.59626
   4046.89  1.48142
   4117.38  1.54660
   4189.10  1.61485
   4262.08  1.68631
   4336.32  1.76112
   4411.85  1.22967
   4488.71  1.28498
   4566.90  1.34288
   4646.45  1.19579
   4727.39  1.25006
   4809.74  1.30688
   4893.52  1.36637
   4978.76  1.32776
   5065.49  1.38599
   5153.72  1.44705
   5243.50  1.51107
   5334.84  1.57819
   5427.77  1.64857
   5522.32  1.72236
   5618.51  1.79974
   5716.38  1.88088
   5815.96  1.96597
   5917.27  2.05518
   6020.34  2.14873
   6125.21  2.24686
   6231.91  2.34977
   6340.47  2.45770
   6450.91  2.57088
   6563.28  2.68959
   6677.61  2.81406
   6793.93  2.94460
   6912.28  3.08154
   7032.69  3.22519
   7155.19  3.37584
   7279.83  3.53383
   7406.64  3.69957
   7535.66  3.87342
   7666.92  4.05582
   7800.48  4.24707
   7936.36  4.44773
   8074.60  4.65829
   8215.26  4.87911
   8358.36  5.11077
   8503.96  5.35379
   8652.09  5.60870
   8802.81  5.87613
   8956.15  6.15667
   9112.16  6.45094
   9270.88  6.75984
   9432.38  7.08384
   9596.68  7.42349
   9763.85  7.78019
   9933.93  8.15469
   10107.0  8.54724
   10283.0  8.95903
   10462.2  9.39109
   10644.4  9.84439
   10829.8  10.3200
   11018.5  10.8189
   11210.4  11.3425
   11405.7  11.8918
   11604.4  12.4681
   11806.5  13.0727
   12012.2  13.7071
   12221.4  14.3725
   12434.3  15.0709
   12650.9  15.8035
   12871.3  16.5721
   13095.5  17.3784
   13323.6  18.2245
   13555.7  19.1121
   13791.8  20.0433
   14032.1  21.0203
   14276.5  22.0452
   14525.2  23.1206
   14778.2  24.2484
   15035.6  25.4318
   15297.5  26.6734
   15564.0  27.9760
   15835.1  29.3425
   16111.0  30.7758
   16391.6  32.2793
   16677.1  33.8566
   16967.6  35.5112
   17263.2  37.2470
   17563.9  39.0673
   17869.9  40.9768
   18181.1  42.9798
   18497.8  45.0805
   18820.1  47.2840
   19147.9  49.5949
   19481.4  52.0187
   19820.8  54.5605
   20166.1  57.2265
   20517.3  60.0227
   20874.7  62.9554
   21238.4  66.0304
   21608.3  69.2548
   21984.7  72.6360
   22367.7  76.1817
   22757.3  79.8995
   23153.7  83.7973
   23557.1  87.8839
   23967.4  92.1682
   24384.9  96.6603
   24809.7  101.369
   25241.9  106.305
   25681.5  111.479
   26128.9  116.903
   26584.1  122.586
   27047.1  40.4590
   27518.3  42.3191
   27997.6  44.2694
   28485.3  46.3142
   28981.5  48.4584
   29486.4  50.7065
   30000.0  53.0636
