 PbW Density=11.35, Angle=90.deg
 Photon Energy (eV), Atten Length (microns)
   30.0000  2.417820E-02
   30.5226  2.421822E-02
   31.0543  2.421844E-02
   31.5952  2.415421E-02
   32.1456  2.405224E-02
   32.7055  2.390695E-02
   33.2752  2.367965E-02
   33.8549  2.341460E-02
   34.4446  2.312385E-02
   35.0446  2.266046E-02
   35.6551  2.208841E-02
   36.2762  2.153053E-02
   36.9081  2.078180E-02
   37.5510  1.964242E-02
   38.2051  1.845395E-02
   38.8706  1.727708E-02
   39.5477  1.612219E-02
   40.2366  1.473639E-02
   40.9375  1.368363E-02
   41.6506  1.340055E-02
   42.3761  1.322611E-02
   43.1143  1.344229E-02
   43.8653  1.375123E-02
   44.6294  1.415773E-02
   45.4068  1.420331E-02
   46.1978  1.410597E-02
   47.0025  1.380507E-02
   47.8213  1.339345E-02
   48.6543  1.292091E-02
   49.5018  1.242859E-02
   50.3641  1.200225E-02
   51.2414  1.177777E-02
   52.1340  1.169110E-02
   53.0422  1.175882E-02
   53.9661  1.184365E-02
   54.9062  1.203960E-02
   55.8626  1.231890E-02
   56.8357  1.259784E-02
   57.8257  1.287608E-02
   58.8330  1.315335E-02
   59.8579  1.342944E-02
   60.9006  1.374023E-02
   61.9614  1.409614E-02
   63.0407  1.446516E-02
   64.1389  1.483915E-02
   65.2561  1.523320E-02
   66.3928  1.571656E-02
   67.5494  1.625982E-02
   68.7260  1.681827E-02
   69.9232  1.739154E-02
   71.1412  1.797956E-02
   72.3804  1.859517E-02
   73.6413  1.925188E-02
   74.9240  1.992461E-02
   76.2292  2.061359E-02
   77.5570  2.131908E-02
   78.9080  2.204127E-02
   80.2826  2.292982E-02
   81.6810  2.384562E-02
   83.1039  2.477276E-02
   84.5515  2.573404E-02
   86.0243  2.671829E-02
   87.5228  2.762422E-02
   89.0474  2.852714E-02
   90.5985  2.958218E-02
   92.1767  3.082191E-02
   93.7824  3.198732E-02
   95.4160  3.317285E-02
   97.0781  3.438276E-02
   98.7691  3.566286E-02
   100.490  3.710331E-02
   102.240  3.860472E-02
   104.021  4.012619E-02
   105.833  4.166568E-02
   107.677  4.325710E-02
   109.552  4.522881E-02
   111.461  4.744573E-02
   113.402  4.964432E-02
   115.378  5.179727E-02
   117.387  5.363991E-02
   119.432  5.518068E-02
   121.513  5.668835E-02
   123.629  5.815892E-02
   125.783  5.958709E-02
   127.974  6.094357E-02
   130.203  6.180830E-02
   132.471  6.263170E-02
   134.779  6.343026E-02
   137.126  6.420209E-02
   139.515  6.494628E-02
   141.945  6.566191E-02
   144.418  6.647349E-02
   146.934  6.747561E-02
   149.493  6.846818E-02
   152.097  6.944261E-02
   154.747  7.030763E-02
   157.442  7.106622E-02
   160.185  7.178199E-02
   162.975  7.246563E-02
   165.814  7.323835E-02
   168.702  7.372017E-02
   171.641  7.416202E-02
   174.631  7.463479E-02
   177.673  7.516576E-02
   180.768  7.547100E-02
   183.917  7.565686E-02
   187.120  7.580400E-02
   190.380  7.586361E-02
   193.696  7.588792E-02
   197.070  7.573312E-02
   200.503  7.540110E-02
   203.996  7.503729E-02
   207.549  7.451472E-02
   211.165  7.384989E-02
   214.843  7.316475E-02
   218.585  7.245856E-02
   222.393  7.171151E-02
   226.267  7.087036E-02
   230.208  6.996148E-02
   234.219  6.902640E-02
   238.298  6.806578E-02
   242.449  6.708043E-02
   246.673  6.607086E-02
   250.970  6.530469E-02
   255.341  6.463241E-02
   259.789  6.395480E-02
   264.315  6.326748E-02
   268.919  6.263133E-02
   273.603  6.233510E-02
   278.369  6.208600E-02
   283.218  6.182238E-02
   288.152  6.153406E-02
   293.171  6.122119E-02
   298.278  6.088400E-02
   303.474  6.053703E-02
   308.760  6.051604E-02
   314.139  6.061601E-02
   319.611  6.070537E-02
   325.178  6.078436E-02
   330.842  6.085263E-02
   336.606  6.091196E-02
   342.469  6.097852E-02
   348.435  6.106909E-02
   354.504  6.114939E-02
   360.679  6.121952E-02
   366.962  6.133755E-02
   373.354  6.164779E-02
   379.858  6.206453E-02
   386.475  6.248293E-02
   393.207  6.290328E-02
   400.056  6.334709E-02
   407.025  6.393141E-02
   414.115  6.453049E-02
   421.329  6.511367E-02
   428.668  6.569955E-02
   436.135  6.628386E-02
   443.732  6.685368E-02
   451.462  6.748429E-02
   459.326  6.825379E-02
   467.327  6.911399E-02
   475.468  7.000618E-02
   483.750  7.108952E-02
   492.177  7.232853E-02
   500.750  7.360590E-02
   509.473  7.490663E-02
   518.348  7.624181E-02
   527.377  7.764209E-02
   536.564  7.915110E-02
   545.910  8.075915E-02
   555.420  8.240444E-02
   565.095  8.409040E-02
   574.938  8.571077E-02
   584.953  8.723690E-02
   595.143  8.875217E-02
   605.510  9.029813E-02
   616.057  9.187715E-02
   626.789  9.349399E-02
   637.707  9.527786E-02
   648.815  9.733491E-02
   660.117  9.949736E-02
   671.616  0.101669
   683.315  0.103807
   695.218  0.105939
   707.329  0.108142
   719.650  0.110472
   732.186  0.112881
   744.940  0.115456
   757.916  0.118192
   771.119  0.121012
   784.551  0.123937
   798.217  0.127072
   812.122  0.130424
   826.269  0.133866
   840.662  0.137404
   855.305  0.141060
   870.204  0.144707
   885.363  0.148272
   900.785  0.151921
   916.476  0.155655
   932.441  0.159967
   948.683  0.164868
   965.209  0.170147
   982.022  0.175649
   999.128  0.181362
   1016.53  0.187315
   1034.24  0.193836
   1052.26  0.200620
   1070.59  0.207674
   1089.23  0.214983
   1108.21  0.222551
   1127.51  0.230391
   1147.15  0.238511
   1167.14  0.246922
   1187.47  0.255633
   1208.15  0.264654
   1229.20  0.273997
   1250.61  0.283713
   1272.39  0.293832
   1294.56  0.304381
   1317.11  0.315310
   1340.05  0.326637
   1363.39  0.338380
   1387.14  0.350550
   1411.31  0.363163
   1435.89  0.376234
   1460.90  0.389811
   1486.35  0.403973
   1512.24  0.418982
   1538.58  0.434707
   1565.39  0.451036
   1592.65  0.467986
   1620.40  0.485582
   1648.62  0.503852
   1677.34  0.522817
   1706.56  0.542497
   1736.29  0.563054
   1766.53  0.584678
   1797.30  0.607243
   1828.61  0.357024
   1860.46  0.369889
   1892.87  0.293023
   1925.84  0.305243
   1959.39  0.317972
   1993.52  0.331234
   2028.25  0.344944
   2063.58  0.359395
   2099.53  0.374467
   2136.10  0.390178
   2173.31  0.406575
   2211.17  0.423670
   2249.68  0.441501
   2288.87  0.411036
   2328.74  0.429233
   2369.31  0.448256
   2410.58  0.468123
   2452.57  0.488895
   2495.29  0.359178
   2538.76  0.375196
   2582.98  0.378268
   2627.97  0.326814
   2673.75  0.341058
   2720.33  0.355912
   2767.71  0.371409
   2815.93  0.387570
   2864.98  0.396101
   2914.88  0.412925
   2965.66  0.430481
   3017.32  0.448803
   3069.88  0.430782
   3123.35  0.449285
   3177.76  0.468593
   3233.12  0.488748
   3289.43  0.509783
   3346.73  0.531737
   3405.03  0.554641
   3464.35  0.578559
   3524.69  0.603520
   3586.09  0.608287
   3648.56  0.634353
   3712.11  0.661563
   3776.78  0.689949
   3842.56  0.719554
   3909.50  0.731572
   3977.60  0.763004
   4046.89  0.795832
   4117.38  0.830178
   4189.10  0.866066
   4262.08  0.903574
   4336.32  0.942784
   4411.85  0.983773
   4488.71  1.02663
   4566.90  1.07142
   4646.45  1.11825
   4727.39  1.16721
   4809.74  1.21839
   4893.52  1.27191
   4978.76  1.32786
   5065.49  1.38635
   5153.72  1.44750
   5243.50  1.51145
   5334.84  1.57830
   5427.77  1.64820
   5522.32  1.72129
   5618.51  1.79769
   5716.38  1.87759
   5815.96  1.96114
   5917.27  2.04848
   6020.34  2.13982
   6125.21  2.23533
   6231.91  2.33519
   6340.47  2.43962
   6450.91  2.54883
   6563.28  2.66303
   6677.61  2.78242
   6793.93  2.90732
   6912.28  3.03792
   7032.69  3.17448
   7155.19  3.31730
   7279.83  3.46670
   7406.64  3.62288
   7535.66  3.78631
   7666.92  3.95716
   7800.48  4.13593
   7936.36  4.32279
   8074.60  4.51844
   8215.26  4.72300
   8358.36  4.93696
   8503.96  5.16084
   8652.09  5.39502
   8802.81  5.63995
   8956.15  5.89624
   9112.16  6.16442
   9270.88  6.44515
   9432.38  6.73877
   9596.68  7.04603
   9763.85  7.36707
   9933.93  7.70092
   10107.0  8.05661
   10283.0  5.21884
   10462.2  5.47315
   10644.4  5.73984
   10829.8  6.01951
   11018.5  6.31279
   11210.4  6.62032
   11405.7  6.94284
   11604.4  5.83373
   11806.5  6.10929
   12012.2  6.39796
   12221.4  6.07237
   12434.3  6.34635
   12650.9  6.63320
   12871.3  6.93369
   13095.5  5.14190
   13323.6  5.38216
   13555.7  5.63394
   13791.8  5.89786
   14032.1  6.17449
   14276.5  6.46441
   14525.2  6.76831
   14778.2  7.08678
   15035.6  7.42069
   15297.5  6.52857
   15564.0  6.81985
   15835.1  7.12431
   16111.0  6.88606
   16391.6  7.19425
   16677.1  7.51727
   16967.6  7.85579
   17263.2  8.21056
   17563.9  8.58237
   17869.9  8.97202
   18181.1  9.38043
   18497.8  9.80844
   18820.1  10.2571
   19147.9  10.7272
   19481.4  11.2201
   19820.8  11.7366
   20166.1  12.2781
   20517.3  12.8456
   20874.7  13.4404
   21238.4  14.0639
   21608.3  14.7174
   21984.7  15.4023
   22367.7  16.1203
   22757.3  16.8729
   23153.7  17.6617
   23557.1  18.4885
   23967.4  19.3552
   24384.9  20.2637
   24809.7  21.2160
   25241.9  22.2142
   25681.5  23.2604
   26128.9  24.3572
   26584.1  25.5067
   27047.1  26.7116
   27518.3  27.9745
   27997.6  29.2982
   28485.3  30.6857
   28981.5  32.1400
   29486.4  33.6643
   30000.0  35.2619
