 Si3N4 Density=3.44, Angle=90.deg
 Photon Energy (eV), Atten Length (microns)
   30.0000  1.562073E-02
   30.5226  1.614851E-02
   31.0543  1.669376E-02
   31.5952  1.725534E-02
   32.1456  1.782969E-02
   32.7055  1.840617E-02
   33.2752  1.897651E-02
   33.8549  1.956047E-02
   34.4446  2.016153E-02
   35.0446  2.078011E-02
   35.6551  2.141665E-02
   36.2762  2.207169E-02
   36.9081  2.274564E-02
   37.5510  2.306634E-02
   38.2051  2.377087E-02
   38.8706  2.449566E-02
   39.5477  2.524512E-02
   40.2366  2.602562E-02
   40.9375  2.683241E-02
   41.6506  2.766340E-02
   42.3761  2.851936E-02
   43.1143  2.940084E-02
   43.8653  3.030871E-02
   44.6294  3.124358E-02
   45.4068  3.220632E-02
   46.1978  3.321683E-02
   47.0025  3.430707E-02
   47.8213  3.545001E-02
   48.6543  3.662973E-02
   49.5018  3.784737E-02
   50.3641  3.910408E-02
   51.2414  4.040101E-02
   52.1340  4.173954E-02
   53.0422  4.311203E-02
   53.9661  4.353573E-02
   54.9062  4.470095E-02
   55.8626  4.598057E-02
   56.8357  4.729453E-02
   57.8257  4.864370E-02
   58.8330  5.003665E-02
   59.8579  5.144595E-02
   60.9006  5.285570E-02
   61.9614  5.432140E-02
   63.0407  5.583224E-02
   64.1389  5.737394E-02
   65.2561  5.895464E-02
   66.3928  6.070609E-02
   67.5494  6.251822E-02
   68.7260  6.438310E-02
   69.9232  6.636233E-02
   71.1412  6.863288E-02
   72.3804  7.116997E-02
   73.6413  7.380537E-02
   74.9240  7.664831E-02
   76.2292  7.982418E-02
   77.5570  8.320326E-02
   78.9080  8.671798E-02
   80.2826  8.989860E-02
   81.6810  9.307579E-02
   83.1039  9.639405E-02
   84.5515  9.978963E-02
   86.0243  0.102889
   87.5228  0.106067
   89.0474  0.109332
   90.5985  0.112664
   92.1767  0.115988
   93.7824  0.119300
   95.4160  0.122665
   97.0781  0.126021
   98.7691  0.129079
   100.490  5.895934E-02
   102.240  5.842664E-02
   104.021  6.493428E-02
   105.833  6.030144E-02
   107.677  5.403156E-02
   109.552  5.231535E-02
   111.461  4.931415E-02
   113.402  4.754286E-02
   115.378  4.489135E-02
   117.387  4.145202E-02
   119.432  4.011382E-02
   121.513  3.936703E-02
   123.629  3.922934E-02
   125.783  3.929137E-02
   127.974  3.916663E-02
   130.203  3.865037E-02
   132.471  3.839287E-02
   134.779  3.997397E-02
   137.126  4.251134E-02
   139.515  4.336140E-02
   141.945  4.390495E-02
   144.418  4.400605E-02
   146.934  4.387854E-02
   149.493  4.428471E-02
   152.097  4.354230E-02
   154.747  4.627331E-02
   157.442  4.663215E-02
   160.185  4.610449E-02
   162.975  4.528276E-02
   165.814  4.532315E-02
   168.702  4.560669E-02
   171.641  4.747967E-02
   174.631  5.108721E-02
   177.673  5.438065E-02
   180.768  5.623924E-02
   183.917  5.781034E-02
   187.120  5.942956E-02
   190.380  6.113188E-02
   193.696  6.291740E-02
   197.070  6.475383E-02
   200.503  6.664261E-02
   203.996  6.851820E-02
   207.549  7.037623E-02
   211.165  7.227247E-02
   214.843  7.421806E-02
   218.585  7.622148E-02
   222.393  7.841107E-02
   226.267  8.099915E-02
   230.208  8.367190E-02
   234.219  8.643179E-02
   238.298  8.928151E-02
   242.449  9.222394E-02
   246.673  9.526256E-02
   250.970  9.854859E-02
   255.341  0.102051
   259.789  0.105688
   264.315  0.109453
   268.919  0.113352
   273.603  0.117389
   278.369  0.121568
   283.218  0.125896
   288.152  0.130377
   293.171  0.135017
   298.278  0.139876
   303.474  0.145033
   308.760  0.150432
   314.139  0.156076
   319.611  0.161978
   325.178  0.168104
   330.842  0.174459
   336.606  0.181050
   342.469  0.187887
   348.435  0.194978
   354.504  0.202333
   360.679  0.209961
   366.962  0.218192
   373.354  0.227421
   379.858  0.237180
   386.475  0.247355
   393.207  0.257965
   400.056  0.269028
   407.025  0.280563
   414.115  0.135354
   421.329  0.140961
   428.668  0.146800
   436.135  0.152881
   443.732  0.159214
   451.462  0.165808
   459.326  0.172687
   467.327  0.179925
   475.468  0.187540
   483.750  0.195477
   492.177  0.203749
   500.750  0.212371
   509.473  0.221357
   518.348  0.230722
   527.377  0.240483
   536.564  0.250656
   545.910  0.261259
   555.420  0.272310
   565.095  0.283989
   574.938  0.296545
   584.953  0.309901
   595.143  0.324057
   605.510  0.338936
   616.057  0.354496
   626.789  0.370770
   637.707  0.387792
   648.815  0.405595
   660.117  0.424214
   671.616  0.443688
   683.315  0.464055
   695.218  0.485274
   707.329  0.507077
   719.650  0.529702
   732.186  0.553336
   744.940  0.578024
   757.916  0.603813
   771.119  0.630924
   784.551  0.659636
   798.217  0.690116
   812.122  0.722708
   826.269  0.756956
   840.662  0.792806
   855.305  0.830218
   870.204  0.869251
   885.363  0.910036
   900.785  0.953092
   916.476  0.999160
   932.441  1.04808
   948.683  1.09961
   965.209  1.15377
   982.022  1.21062
   999.128  1.27026
   1016.53  1.33286
   1034.24  1.39836
   1052.26  1.46752
   1070.59  1.54051
   1089.23  1.61676
   1108.21  1.69481
   1127.51  1.77555
   1147.15  1.86015
   1167.14  1.94878
   1187.47  2.04163
   1208.15  2.13897
   1229.20  2.24103
   1250.61  2.34850
   1272.39  2.46183
   1294.56  2.58153
   1317.11  2.70738
   1340.05  2.83939
   1363.39  2.97788
   1387.14  3.12319
   1411.31  3.27568
   1435.89  3.43575
   1460.90  3.60379
   1486.35  3.78015
   1512.24  3.96726
   1538.58  4.16502
   1565.39  4.37271
   1592.65  4.59081
   1620.40  4.81981
   1648.62  5.06030
   1677.34  5.31274
   1706.56  5.57775
   1736.29  5.85746
   1766.53  6.15555
   1797.30  6.47020
   1828.61  6.80163
   1860.46  1.31435
   1892.87  1.37101
   1925.84  1.43012
   1959.39  1.49177
   1993.52  1.55615
   2028.25  1.62349
   2063.58  1.69404
   2099.53  1.76845
   2136.10  1.84703
   2173.31  1.92947
   2211.17  2.01607
   2249.68  2.10690
   2288.87  2.20226
   2328.74  2.30243
   2369.31  2.40752
   2410.58  2.51800
   2452.57  2.63391
   2495.29  2.75566
   2538.76  2.88346
   2582.98  3.01764
   2627.97  3.15861
   2673.75  3.30654
   2720.33  3.46205
   2767.71  3.62536
   2815.93  3.79678
   2864.98  3.97691
   2914.88  4.16607
   2965.66  4.36497
   3017.32  4.57374
   3069.88  4.79313
   3123.35  5.02364
   3177.76  5.26575
   3233.12  5.52023
   3289.43  5.78756
   3346.73  6.06856
   3405.03  6.36383
   3464.35  6.67407
   3524.69  7.00019
   3586.09  7.34275
   3648.56  7.70311
   3712.11  8.08174
   3776.78  8.47964
   3842.56  8.89820
   3909.50  9.33795
   3977.60  9.80042
   4046.89  10.2866
   4117.38  10.7977
   4189.10  11.3351
   4262.08  11.8999
   4336.32  12.4939
   4411.85  13.1184
   4488.71  13.7752
   4566.90  14.4659
   4646.45  15.1921
   4727.39  15.9563
   4809.74  16.7594
   4893.52  17.6041
   4978.76  18.4924
   5065.49  19.4269
   5153.72  20.4103
   5243.50  21.4441
   5334.84  22.5315
   5427.77  23.6753
   5522.32  24.8788
   5618.51  26.1449
   5716.38  27.4769
   5815.96  28.8780
   5917.27  30.3519
   6020.34  31.9032
   6125.21  33.5353
   6231.91  35.2519
   6340.47  37.0571
   6450.91  38.9604
   6563.28  40.9598
   6677.61  43.0643
   6793.93  45.2798
   6912.28  47.6105
   7032.69  50.0632
   7155.19  52.6445
   7279.83  55.3606
   7406.64  58.2201
   7535.66  61.2290
   7666.92  64.3950
   7800.48  67.7282
   7936.36  71.2358
   8074.60  74.9282
   8215.26  78.8143
   8358.36  82.9046
   8503.96  87.2099
   8652.09  91.7416
   8802.81  96.5120
   8956.15  101.532
   9112.16  106.818
   9270.88  112.381
   9432.38  118.235
   9596.68  124.400
   9763.85  130.889
   9933.93  137.719
   10107.0  144.909
   10283.0  152.479
   10462.2  160.447
   10644.4  168.835
   10829.8  177.664
   11018.5  186.958
   11210.4  196.741
   11405.7  207.039
   11604.4  217.877
   11806.5  229.287
   12012.2  241.297
   12221.4  253.935
   12434.3  267.237
   12650.9  281.240
   12871.3  295.974
   13095.5  311.479
   13323.6  327.796
   13555.7  344.967
   13791.8  363.032
   14032.1  382.043
   14276.5  402.038
   14525.2  423.078
   14778.2  445.208
   15035.6  468.489
   15297.5  492.992
   15564.0  518.762
   15835.1  545.871
   16111.0  574.376
   16391.6  604.349
   16677.1  635.861
   16967.6  668.982
   17263.2  703.795
   17563.9  740.383
   17869.9  778.825
   18181.1  819.211
   18497.8  861.629
   18820.1  906.182
   19147.9  952.957
   19481.4  1002.06
   19820.8  1053.59
   20166.1  1107.72
   20517.3  1164.52
   20874.7  1224.06
   21238.4  1286.46
   21608.3  1351.80
   21984.7  1420.22
   22367.7  1491.84
   22757.3  1566.76
   23153.7  1645.12
   23557.1  1727.02
   23967.4  1812.59
   24384.9  1901.95
   24809.7  1995.22
   25241.9  2092.52
   25681.5  2193.95
   26128.9  2299.64
   26584.1  2409.68
   27047.1  2524.18
   27518.3  2643.24
   27997.6  2766.96
   28485.3  2895.39
   28981.5  3028.65
   29486.4  3166.79
   30000.0  3309.83
