 SiO2 Density=2.2, Angle=90.deg
 Photon Energy (eV), Atten Length (microns)
   30.0000  2.008196E-02
   30.5226  2.032868E-02
   31.0543  2.057845E-02
   31.5952  2.083008E-02
   32.1456  2.108086E-02
   32.7055  2.133337E-02
   33.2752  2.158888E-02
   33.8549  2.184740E-02
   34.4446  2.210899E-02
   35.0446  2.237369E-02
   35.6551  2.264154E-02
   36.2762  2.296762E-02
   36.9081  2.345544E-02
   37.5510  2.398813E-02
   38.2051  2.453265E-02
   38.8706  2.508923E-02
   39.5477  2.566009E-02
   40.2366  2.624846E-02
   40.9375  2.685163E-02
   41.6506  2.746864E-02
   42.3761  2.809961E-02
   43.1143  2.874502E-02
   43.8653  2.940511E-02
   44.6294  3.008023E-02
   45.4068  3.077075E-02
   46.1978  3.147771E-02
   47.0025  3.220263E-02
   47.8213  3.294475E-02
   48.6543  3.374442E-02
   49.5018  3.470097E-02
   50.3641  3.574653E-02
   51.2414  3.682323E-02
   52.1340  3.793197E-02
   53.0422  3.907001E-02
   53.9661  4.023135E-02
   54.9062  4.142605E-02
   55.8626  4.265527E-02
   56.8357  4.391993E-02
   57.8257  4.522082E-02
   58.8330  4.655915E-02
   59.8579  4.791538E-02
   60.9006  4.928274E-02
   61.9614  5.068254E-02
   63.0407  5.211751E-02
   64.1389  5.358826E-02
   65.2561  5.509937E-02
   66.3928  5.670907E-02
   67.5494  5.836983E-02
   68.7260  6.007731E-02
   69.9232  6.184517E-02
   71.1412  6.373858E-02
   72.3804  6.575336E-02
   73.6413  6.783104E-02
   74.9240  7.001924E-02
   76.2292  7.236825E-02
   77.5570  7.482283E-02
   78.9080  7.734694E-02
   80.2826  7.976066E-02
   81.6810  8.219019E-02
   83.1039  8.469364E-02
   84.5515  8.725697E-02
   86.0243  8.974084E-02
   87.5228  9.229041E-02
   89.0474  9.490683E-02
   90.5985  9.758355E-02
   92.1767  0.100291
   93.7824  0.103029
   95.4160  0.105831
   97.0781  0.108672
   98.7691  0.111592
   100.490  7.480669E-02
   102.240  7.539314E-02
   104.021  8.172815E-02
   105.833  7.901061E-02
   107.677  7.433551E-02
   109.552  7.353570E-02
   111.461  7.128754E-02
   113.402  7.013065E-02
   115.378  6.785128E-02
   117.387  6.441713E-02
   119.432  6.331076E-02
   121.513  6.286945E-02
   123.629  6.316942E-02
   125.783  6.371494E-02
   127.974  6.400435E-02
   130.203  6.374826E-02
   132.471  6.380986E-02
   134.779  6.639373E-02
   137.126  7.027610E-02
   139.515  7.186934E-02
   141.945  7.305124E-02
   144.418  7.362252E-02
   146.934  7.386505E-02
   149.493  7.485415E-02
   152.097  7.419150E-02
   154.747  7.852889E-02
   157.442  7.946652E-02
   160.185  7.910609E-02
   162.975  7.826960E-02
   165.814  7.867762E-02
   168.702  7.944611E-02
   171.641  8.261997E-02
   174.631  8.840213E-02
   177.673  9.370273E-02
   180.768  9.691901E-02
   183.917  9.986567E-02
   187.120  0.103012
   190.380  0.106306
   193.696  0.109752
   197.070  0.113300
   200.503  0.116954
   203.996  0.120615
   207.549  0.124272
   211.165  0.128014
   214.843  0.131856
   218.585  0.135813
   222.393  0.140086
   226.267  0.145014
   230.208  0.150108
   234.219  0.155374
   238.298  0.160796
   242.449  0.166288
   246.673  0.171913
   250.970  0.177967
   255.341  0.184400
   259.789  0.191082
   264.315  0.198004
   268.919  0.205175
   273.603  0.212606
   278.369  0.220315
   283.218  0.228312
   288.152  0.236604
   293.171  0.245194
   298.278  0.254185
   303.474  0.263708
   308.760  0.273671
   314.139  0.284008
   319.611  0.294735
   325.178  0.305863
   330.842  0.317411
   336.606  0.329392
   342.469  0.341823
   348.435  0.354721
   354.504  0.368103
   360.679  0.381988
   366.962  0.396927
   373.354  0.413572
   379.858  0.431147
   386.475  0.449480
   393.207  0.468627
   400.056  0.488603
   407.025  0.509433
   414.115  0.531154
   421.329  0.553798
   428.668  0.577407
   436.135  0.602021
   443.732  0.627687
   451.462  0.654442
   459.326  0.682415
   467.327  0.712158
   475.468  0.743776
   483.750  0.776797
   492.177  0.811281
   500.750  0.847293
   509.473  0.884912
   518.348  0.924198
   527.377  0.965225
   536.564  1.00807
   545.910  0.303581
   555.420  0.316842
   565.095  0.330672
   574.938  0.345002
   584.953  0.359886
   595.143  0.375499
   605.510  0.391827
   616.057  0.408869
   626.789  0.426677
   637.707  0.445593
   648.815  0.465946
   660.117  0.487606
   671.616  0.510051
   683.315  0.532313
   695.218  0.554709
   707.329  0.578056
   719.650  0.603247
   732.186  0.629911
   744.940  0.657747
   757.916  0.686833
   771.119  0.717324
   784.551  0.749650
   798.217  0.784084
   812.122  0.820588
   826.269  0.858867
   840.662  0.898825
   855.305  0.939973
   870.204  0.982282
   885.363  1.02606
   900.785  1.07201
   916.476  1.12062
   932.441  1.17282
   948.683  1.22854
   965.209  1.28741
   982.022  1.34922
   999.128  1.41395
   1016.53  1.48169
   1034.24  1.55214
   1052.26  1.62643
   1070.59  1.70472
   1089.23  1.78657
   1108.21  1.87115
   1127.51  1.95906
   1147.15  2.05110
   1167.14  2.14749
   1187.47  2.24843
   1208.15  2.35414
   1229.20  2.46487
   1250.61  2.58117
   1272.39  2.70347
   1294.56  2.83228
   1317.11  2.96739
   1340.05  3.10895
   1363.39  3.25728
   1387.14  3.41267
   1411.31  3.57563
   1435.89  3.74644
   1460.90  3.92557
   1486.35  4.11381
   1512.24  4.31366
   1538.58  4.52463
   1565.39  4.74594
   1592.65  4.97825
   1620.40  5.22195
   1648.62  5.47754
   1677.34  5.74572
   1706.56  6.02704
   1736.29  6.32333
   1766.53  6.63742
   1797.30  6.96825
   1828.61  7.31612
   1860.46  2.27656
   1892.87  2.37637
   1925.84  2.48055
   1959.39  2.58929
   1993.52  2.70288
   2028.25  2.82160
   2063.58  2.94620
   2099.53  3.07752
   2136.10  3.21607
   2173.31  3.36141
   2211.17  3.51410
   2249.68  3.67425
   2288.87  3.84239
   2328.74  4.01900
   2369.31  4.20432
   2410.58  4.39910
   2452.57  4.60349
   2495.29  4.81817
   2538.76  5.04358
   2582.98  5.28025
   2627.97  5.52891
   2673.75  5.78989
   2720.33  6.06426
   2767.71  6.35242
   2815.93  6.65496
   2864.98  6.97292
   2914.88  7.30689
   2965.66  7.65810
   3017.32  8.02682
   3069.88  8.41436
   3123.35  8.82167
   3177.76  9.24963
   3233.12  9.69959
   3289.43  10.1723
   3346.73  10.6694
   3405.03  11.1919
   3464.35  11.7411
   3524.69  12.3187
   3586.09  12.9256
   3648.56  13.5644
   3712.11  14.2359
   3776.78  14.9418
   3842.56  15.6848
   3909.50  16.4658
   3977.60  17.2877
   4046.89  18.1524
   4117.38  19.0615
   4189.10  20.0176
   4262.08  21.0229
   4336.32  22.0804
   4411.85  23.1924
   4488.71  24.3624
   4566.90  25.5930
   4646.45  26.8874
   4727.39  28.2497
   4809.74  29.6822
   4893.52  31.1890
   4978.76  32.7742
   5065.49  34.4424
   5153.72  36.1982
   5243.50  38.0446
   5334.84  39.9875
   5427.77  42.0316
   5522.32  44.1831
   5618.51  46.4472
   5716.38  48.8297
   5815.96  51.3367
   5917.27  53.9746
   6020.34  56.7522
   6125.21  59.6749
   6231.91  62.7502
   6340.47  65.9853
   6450.91  69.3967
   6563.28  72.9820
   6677.61  76.7569
   6793.93  80.7317
   6912.28  84.9146
   7032.69  89.3178
   7155.19  93.9533
   7279.83  98.8324
   7406.64  103.970
   7535.66  109.378
   7666.92  115.070
   7800.48  121.065
   7936.36  127.375
   8074.60  134.019
   8215.26  141.014
   8358.36  148.379
   8503.96  156.133
   8652.09  164.297
   8802.81  172.893
   8956.15  181.943
   9112.16  191.473
   9270.88  201.506
   9432.38  212.067
   9596.68  223.191
   9763.85  234.902
   9933.93  247.231
   10107.0  260.215
   10283.0  273.889
   10462.2  288.284
   10644.4  303.442
   10829.8  319.401
   11018.5  336.203
   11210.4  353.891
   11405.7  372.515
   11604.4  392.121
   11806.5  412.763
   12012.2  434.493
   12221.4  457.362
   12434.3  481.438
   12650.9  506.782
   12871.3  533.453
   13095.5  561.522
   13323.6  591.062
   13555.7  622.149
   13791.8  654.854
   14032.1  689.272
   14276.5  725.470
   14525.2  763.556
   14778.2  803.610
   15035.6  845.745
   15297.5  890.090
   15564.0  936.719
   15835.1  985.760
   16111.0  1037.31
   16391.6  1091.51
   16677.1  1148.46
   16967.6  1208.31
   17263.2  1271.19
   17563.9  1337.24
   17869.9  1406.60
   18181.1  1479.43
   18497.8  1555.88
   18820.1  1636.13
   19147.9  1720.31
   19481.4  1808.61
   19820.8  1901.20
   20166.1  1998.34
   20517.3  2100.24
   20874.7  2206.95
   21238.4  2318.65
   21608.3  2435.51
   21984.7  2557.73
   22367.7  2685.51
   22757.3  2819.02
   23153.7  2958.47
   23557.1  3104.01
   23967.4  3255.85
   24384.9  3414.16
   24809.7  3579.13
   25241.9  3750.92
   25681.5  3929.69
   26128.9  4115.60
   26584.1  4308.78
   27047.1  4509.36
   27518.3  4717.48
   27997.6  4933.23
   28485.3  5156.68
   28981.5  5387.93
   29486.4  5627.02
   30000.0  5873.93
