 Y3Al5O12 Density=4.55, Angle=90.deg
 Photon Energy (eV), Atten Length (microns)
   30.0000  8.661211E-03
   30.5226  8.548039E-03
   31.0543  8.540801E-03
   31.5952  8.572735E-03
   32.1456  8.604149E-03
   32.7055  8.707858E-03
   33.2752  8.859033E-03
   33.8549  9.016985E-03
   34.4446  9.206512E-03
   35.0446  9.555447E-03
   35.6551  9.910861E-03
   36.2762  1.028643E-02
   36.9081  1.071094E-02
   37.5510  1.115735E-02
   38.2051  1.161743E-02
   38.8706  1.209139E-02
   39.5477  1.257948E-02
   40.2366  1.308182E-02
   40.9375  1.359873E-02
   41.6506  1.413105E-02
   42.3761  1.470779E-02
   43.1143  1.545425E-02
   43.8653  1.621781E-02
   44.6294  1.699756E-02
   45.4068  1.779290E-02
   46.1978  1.860320E-02
   47.0025  1.942795E-02
   47.8213  2.026923E-02
   48.6543  2.114869E-02
   49.5018  2.211593E-02
   50.3641  2.314046E-02
   51.2414  2.419377E-02
   52.1340  2.527621E-02
   53.0422  2.639168E-02
   53.9661  2.756315E-02
   54.9062  2.876272E-02
   55.8626  2.999195E-02
   56.8357  3.125141E-02
   57.8257  3.254163E-02
   58.8330  3.386348E-02
   59.8579  3.521489E-02
   60.9006  3.659470E-02
   61.9614  3.798789E-02
   63.0407  3.935077E-02
   64.1389  4.070706E-02
   65.2561  4.209141E-02
   66.3928  4.351199E-02
   67.5494  4.497021E-02
   68.7260  4.647079E-02
   69.9232  4.800902E-02
   71.1412  4.956264E-02
   72.3804  5.110982E-02
   73.6413  3.946873E-02
   74.9240  3.989818E-02
   76.2292  4.028108E-02
   77.5570  4.058397E-02
   78.9080  4.082255E-02
   80.2826  4.101489E-02
   81.6810  4.120427E-02
   83.1039  4.136071E-02
   84.5515  4.147116E-02
   86.0243  4.153975E-02
   87.5228  4.180955E-02
   89.0474  4.228077E-02
   90.5985  4.274032E-02
   92.1767  4.318767E-02
   93.7824  4.362236E-02
   95.4160  4.404037E-02
   97.0781  4.443835E-02
   98.7691  4.484902E-02
   100.490  4.534133E-02
   102.240  4.584124E-02
   104.021  4.634365E-02
   105.833  4.690155E-02
   107.677  4.744605E-02
   109.552  4.797423E-02
   111.461  4.848547E-02
   113.402  4.897833E-02
   115.378  4.945163E-02
   117.387  4.990678E-02
   119.432  5.034355E-02
   121.513  5.076183E-02
   123.629  5.115767E-02
   125.783  5.196717E-02
   127.974  5.306400E-02
   130.203  5.420579E-02
   132.471  5.534497E-02
   134.779  5.649567E-02
   137.126  5.763132E-02
   139.515  5.872695E-02
   141.945  5.980574E-02
   144.418  6.081575E-02
   146.934  6.169321E-02
   149.493  6.257074E-02
   152.097  6.369537E-02
   154.747  6.497104E-02
   157.442  6.611294E-02
   160.185  6.703270E-02
   162.975  6.780953E-02
   165.814  6.828903E-02
   168.702  6.837500E-02
   171.641  6.829043E-02
   174.631  6.816186E-02
   177.673  6.789177E-02
   180.768  6.792850E-02
   183.917  6.845792E-02
   187.120  6.887084E-02
   190.380  6.928222E-02
   193.696  7.000337E-02
   197.070  7.087719E-02
   200.503  7.170608E-02
   203.996  7.267352E-02
   207.549  7.405787E-02
   211.165  7.543743E-02
   214.843  7.678410E-02
   218.585  7.809523E-02
   222.393  7.935404E-02
   226.267  8.055977E-02
   230.208  8.176574E-02
   234.219  8.294425E-02
   238.298  8.408605E-02
   242.449  8.528198E-02
   246.673  8.657523E-02
   250.970  8.788195E-02
   255.341  8.917572E-02
   259.789  9.045874E-02
   264.315  9.180158E-02
   268.919  9.322495E-02
   273.603  9.484610E-02
   278.369  9.645186E-02
   283.218  9.804440E-02
   288.152  9.970704E-02
   293.171  0.101465
   298.278  0.103213
   303.474  0.104949
   308.760  0.106771
   314.139  0.108864
   319.611  0.111032
   325.178  0.113211
   330.842  0.115402
   336.606  0.117604
   342.469  0.119836
   348.435  0.122266
   354.504  0.124996
   360.679  0.127725
   366.962  0.130426
   373.354  0.133150
   379.858  0.136026
   386.475  0.139598
   393.207  0.143499
   400.056  0.147502
   407.025  0.151609
   414.115  0.156758
   421.329  0.162607
   428.668  0.168673
   436.135  0.174988
   443.732  0.181615
   451.462  0.188515
   459.326  0.195673
   467.327  0.202889
   475.468  0.210177
   483.750  0.217710
   492.177  0.225510
   500.750  0.233601
   509.473  0.242008
   518.348  0.250726
   527.377  0.259747
   536.564  0.269109
   545.910  0.153153
   555.420  0.159221
   565.095  0.165535
   574.938  0.172073
   584.953  0.178831
   595.143  0.185838
   605.510  0.193114
   616.057  0.200672
   626.789  0.208531
   637.707  0.216808
   648.815  0.225618
   660.117  0.235044
   671.616  0.245207
   683.315  0.255386
   695.218  0.265716
   707.329  0.276549
   719.650  0.288145
   732.186  0.300352
   744.940  0.313073
   757.916  0.326335
   771.119  0.340193
   784.551  0.354778
   798.217  0.370137
   812.122  0.386169
   826.269  0.402893
   840.662  0.420306
   855.305  0.438285
   870.204  0.456836
   885.363  0.476052
   900.785  0.496072
   916.476  0.517220
   932.441  0.539962
   948.683  0.564080
   965.209  0.589406
   982.022  0.615899
   999.128  0.643563
   1016.53  0.672428
   1034.24  0.702402
   1052.26  0.734005
   1070.59  0.766689
   1089.23  0.800830
   1108.21  0.836486
   1127.51  0.873721
   1147.15  0.912599
   1167.14  0.953206
   1187.47  0.995617
   1208.15  1.03991
   1229.20  1.08616
   1250.61  1.13452
   1272.39  1.18511
   1294.56  1.23808
   1317.11  1.29341
   1340.05  1.35119
   1363.39  1.41154
   1387.14  1.47457
   1411.31  1.54040
   1435.89  1.60917
   1460.90  1.68104
   1486.35  1.75631
   1512.24  1.83506
   1538.58  1.91657
   1565.39  1.12248
   1592.65  1.17043
   1620.40  1.22040
   1648.62  1.27250
   1677.34  1.32681
   1706.56  1.38342
   1736.29  1.44282
   1766.53  1.50559
   1797.30  1.57144
   1828.61  1.64030
   1860.46  1.71312
   1892.87  1.79039
   1925.84  1.87141
   1959.39  1.95607
   1993.52  2.04455
   2028.25  2.13631
   2063.58  2.23415
   2099.53  1.24918
   2136.10  1.31541
   2173.31  1.12074
   2211.17  1.16251
   2249.68  1.20584
   2288.87  1.25446
   2328.74  1.31051
   2369.31  1.37061
   2410.58  1.31222
   2452.57  1.36619
   2495.29  1.42243
   2538.76  1.48099
   2582.98  1.54199
   2627.97  1.60552
   2673.75  1.67169
   2720.33  1.74060
   2767.71  1.81238
   2815.93  1.88960
   2864.98  1.97595
   2914.88  2.06880
   2965.66  2.16606
   3017.32  2.26793
   3069.88  2.37467
   3123.35  2.48648
   3177.76  2.60362
   3233.12  2.72633
   3289.43  2.85489
   3346.73  2.98912
   3405.03  3.12829
   3464.35  3.27359
   3524.69  3.42570
   3586.09  3.58495
   3648.56  3.75167
   3712.11  3.92621
   3776.78  4.10893
   3842.56  4.30248
   3909.50  4.50792
   3977.60  4.72343
   4046.89  4.94938
   4117.38  5.18617
   4189.10  5.43103
   4262.08  5.67841
   4336.32  5.93708
   4411.85  6.20757
   4488.71  6.49043
   4566.90  6.78621
   4646.45  7.09547
   4727.39  7.41885
   4809.74  7.75701
   4893.52  8.11057
   4978.76  8.49286
   5065.49  8.90062
   5153.72  9.32803
   5243.50  9.77607
   5334.84  10.2457
   5427.77  10.7379
   5522.32  11.2538
   5618.51  11.7946
   5716.38  12.3614
   5815.96  12.9555
   5917.27  13.5783
   6020.34  14.2312
   6125.21  14.9153
   6231.91  15.6326
   6340.47  16.3843
   6450.91  17.1724
   6563.28  17.9989
   6677.61  18.8668
   6793.93  19.7767
   6912.28  20.7305
   7032.69  21.7304
   7155.19  22.7785
   7279.83  23.8773
   7406.64  25.0290
   7535.66  26.2364
   7666.92  27.5019
   7800.48  28.8287
   7936.36  30.2194
   8074.60  31.6866
   8215.26  33.2845
   8358.36  35.0089
   8503.96  36.8227
   8652.09  38.7306
   8802.81  40.7372
   8956.15  42.8480
   9112.16  45.0684
   9270.88  47.4036
   9432.38  49.8602
   9596.68  52.4437
   9763.85  55.1595
   9933.93  57.9562
   10107.0  60.8365
   10283.0  63.8597
   10462.2  67.0337
   10644.4  70.3658
   10829.8  73.8638
   11018.5  77.5354
   11210.4  81.3899
   11405.7  85.4363
   11604.4  89.6835
   11806.5  94.1414
   12012.2  98.8211
   12221.4  103.731
   12434.3  108.887
   12650.9  114.296
   12871.3  119.973
   13095.5  125.931
   13323.6  132.185
   13555.7  138.747
   13791.8  145.632
   14032.1  152.857
   14276.5  160.437
   14525.2  168.392
   14778.2  176.735
   15035.6  185.490
   15297.5  194.677
   15564.0  204.316
   15835.1  214.427
   16111.0  225.032
   16391.6  236.154
   16677.1  247.821
   16967.6  260.055
   17263.2  47.1506
   17563.9  49.2470
   17869.9  51.4471
   18181.1  53.7560
   18497.8  56.1790
   18820.1  58.7222
   19147.9  61.3912
   19481.4  64.1930
   19820.8  67.1332
   20166.1  70.2199
   20517.3  73.4593
   20874.7  76.8599
   21238.4  80.4287
   21608.3  84.1744
   21984.7  88.1062
   22367.7  92.2336
   22757.3  96.5658
   23153.7  101.113
   23557.1  105.887
   23967.4  110.898
   24384.9  116.158
   24809.7  121.681
   25241.9  127.478
   25681.5  133.564
   26128.9  139.952
   26584.1  146.658
   27047.1  153.698
   27518.3  161.087
   27997.6  168.844
   28485.3  176.986
   28981.5  185.534
   29486.4  194.506
   30000.0  203.922
